# Freq (Hz)	LIGO_Hanford_PSD (1/Hz)	LIGO_Livingston_PSD (1/Hz)	
20.000000	6.9754500e-44	1.1283730e-43
20.125000	6.5677500e-44	1.0671270e-43
20.250000	6.1848500e-44	1.0095500e-43
20.375000	5.8255250e-44	9.5517750e-44
20.500000	5.4902500e-44	9.0402250e-44
20.625000	5.1721500e-44	8.5567000e-44
20.750000	4.8754000e-44	8.0958000e-44
20.875000	4.5989250e-44	7.6654250e-44
21.000000	4.3385750e-44	7.2567000e-44
21.125000	4.0948750e-44	6.8722750e-44
21.250000	3.8672500e-44	6.5090500e-44
21.375000	3.6530500e-44	6.1654750e-44
21.500000	3.4526500e-44	5.8407750e-44
21.625000	3.2637750e-44	5.5341250e-44
21.750000	3.0848000e-44	5.2438250e-44
21.875000	2.9168250e-44	4.9683000e-44
22.000000	2.7572750e-44	4.7098250e-44
22.125000	2.6086750e-44	4.4642750e-44
22.250000	2.4685270e-44	4.2309250e-44
22.375000	2.3364700e-44	4.0134750e-44
22.500000	2.2127800e-44	3.8043500e-44
22.625000	2.0957850e-44	3.6083000e-44
22.750000	1.9849780e-44	3.4212250e-44
22.875000	1.8818330e-44	3.2461750e-44
23.000000	1.7850200e-44	3.0801000e-44
23.125000	1.6944450e-44	2.9235750e-44
23.250000	1.6086050e-44	2.7747500e-44
23.375000	1.5277300e-44	2.6355000e-44
23.500000	1.4517920e-44	2.5032750e-44
23.625000	1.3806550e-44	2.3782050e-44
23.750000	1.3131500e-44	2.2612250e-44
23.875000	1.2496550e-44	2.1504820e-44
24.000000	1.1898050e-44	2.0459630e-44
24.125000	1.1337520e-44	1.9469470e-44
24.250000	1.0806720e-44	1.8528050e-44
24.375000	1.0304700e-44	1.7631700e-44
24.500000	9.8292000e-45	1.6764050e-44
24.625000	9.3816000e-45	1.5934350e-44
24.750000	8.9546750e-45	1.5161330e-44
24.875000	8.5511250e-45	1.4433180e-44
25.000000	8.1713750e-45	1.3743250e-44
25.125000	7.8127750e-45	1.3085570e-44
25.250000	7.4721250e-45	1.2466070e-44
25.375000	7.1507000e-45	1.1877950e-44
25.500000	6.8480250e-45	1.1322170e-44
25.625000	6.5647250e-45	1.0790850e-44
25.750000	6.2969750e-45	1.0289350e-44
25.875000	6.0388750e-45	9.8097750e-45
26.000000	5.7922500e-45	9.3581500e-45
26.125000	5.5578250e-45	8.9271000e-45
26.250000	5.3344250e-45	8.5181000e-45
26.375000	5.1207750e-45	8.1315500e-45
26.500000	4.9174750e-45	7.7656500e-45
26.625000	4.7259250e-45	7.4188500e-45
26.750000	4.5443250e-45	7.0906750e-45
26.875000	4.3694500e-45	6.7791750e-45
27.000000	4.2005750e-45	6.4842500e-45
27.125000	4.0421000e-45	6.2053500e-45
27.250000	3.8912750e-45	5.9383000e-45
27.375000	3.7463500e-45	5.6854250e-45
27.500000	3.6084250e-45	5.4466750e-45
27.625000	3.4773750e-45	5.2198500e-45
27.750000	3.3507500e-45	5.0055750e-45
27.875000	3.2284000e-45	4.8007250e-45
28.000000	3.1088000e-45	4.6052250e-45
28.125000	2.9963000e-45	4.4200500e-45
28.250000	2.8878000e-45	4.2436750e-45
28.375000	2.7841750e-45	4.0752750e-45
28.500000	2.6867500e-45	3.9154250e-45
28.625000	2.5946500e-45	3.7628250e-45
28.750000	2.5060000e-45	3.6179250e-45
28.875000	2.4223320e-45	3.4796000e-45
29.000000	2.3430130e-45	3.3477000e-45
29.125000	2.2673230e-45	3.2225750e-45
29.250000	2.1956200e-45	3.1026250e-45
29.375000	2.1270900e-45	2.9888500e-45
29.500000	2.0610850e-45	2.8800250e-45
29.625000	1.9979650e-45	2.7763500e-45
29.750000	1.9364650e-45	2.6781250e-45
29.875000	1.8780400e-45	2.5841500e-45
30.000000	1.8217850e-45	2.4946350e-45
30.125000	1.7683420e-45	2.4093070e-45
30.250000	1.7168980e-45	2.3273300e-45
30.375000	1.6677170e-45	2.2494980e-45
30.500000	1.6206700e-45	2.1748500e-45
30.625000	1.5752650e-45	2.1031680e-45
30.750000	1.5325850e-45	2.0342400e-45
30.875000	1.4908530e-45	1.9687150e-45
31.000000	1.4512800e-45	1.9065100e-45
31.125000	1.4131380e-45	1.8463570e-45
31.250000	1.3765650e-45	1.7887620e-45
31.375000	1.3415020e-45	1.7340900e-45
31.500000	1.3077030e-45	1.6817270e-45
31.625000	1.2753080e-45	1.6318600e-45
31.750000	1.2441000e-45	1.5848400e-45
31.875000	1.2135520e-45	1.5395850e-45
32.000000	1.1838950e-45	1.4967670e-45
32.125000	1.1556520e-45	1.4567400e-45
32.250000	1.1282350e-45	1.4193000e-45
32.375000	1.1020220e-45	1.4246250e-45
32.500000	1.0766520e-45	1.4041180e-45
32.625000	1.0523020e-45	1.3914700e-45
32.750000	1.0288250e-45	1.3877050e-45
32.875000	1.0071100e-45	1.3953730e-45
33.000000	9.9484500e-46	1.4204430e-45
33.125000	9.7654000e-46	1.4761950e-45
33.250000	9.6065250e-46	1.5857020e-45
33.375000	9.4651000e-46	1.8527280e-45
33.500000	9.3536000e-46	2.2623730e-45
33.625000	9.2861000e-46	2.9889000e-45
33.750000	9.2496000e-46	4.3418250e-45
33.875000	9.2866750e-46	6.9617250e-45
34.000000	9.4084000e-46	1.2398450e-44
34.125000	9.6678000e-46	2.4475930e-44
34.250000	1.0143650e-45	5.4639500e-44
34.375000	1.0902430e-45	1.4026750e-43
34.500000	1.2019270e-45	4.4548750e-43
34.625000	1.3837780e-45	3.9833000e-42
34.750000	1.6729930e-45	4.0816500e-42
34.875000	2.1453930e-45	4.6735750e-43
35.000000	2.9397250e-45	2.1026430e-43
35.125000	4.3281000e-45	2.6837750e-43
35.250000	6.5235500e-45	1.9454350e-42
35.375000	9.9675000e-45	1.4482920e-42
35.500000	1.7140580e-44	1.9451970e-43
35.625000	3.8804500e-44	7.2828250e-44
35.750000	1.5520680e-43	3.7814250e-44
35.875000	3.8612750e-42	2.3091350e-44
36.000000	5.1647250e-43	1.5520770e-44
36.125000	9.2538000e-44	9.7378000e-45
36.250000	7.1010500e-44	6.3493000e-45
36.375000	1.5057400e-43	4.3532750e-45
36.500000	5.2174250e-43	3.1189750e-45
36.625000	5.3682250e-42	2.3301000e-45
36.750000	4.0284500e-42	1.8085400e-45
36.875000	4.6369250e-43	1.4549870e-45
37.000000	1.2504880e-43	1.2091870e-45
37.125000	4.1571250e-44	1.0376780e-45
37.250000	1.6002670e-44	9.1528000e-46
37.375000	6.8228750e-45	8.2584500e-46
37.500000	3.0670250e-45	7.5716750e-46
37.625000	1.0101050e-45	7.0814250e-46
37.750000	7.4582250e-46	6.6915000e-46
37.875000	6.5800500e-46	6.3882750e-46
38.000000	5.9395750e-46	6.1410250e-46
38.125000	5.5766000e-46	5.5193750e-46
38.250000	5.3598000e-46	5.4485500e-46
38.375000	5.2117000e-46	5.3797000e-46
38.500000	5.1033500e-46	5.3139750e-46
38.625000	4.9965500e-46	5.2498750e-46
38.750000	4.8010250e-46	5.1879250e-46
38.875000	4.7437000e-46	5.1274750e-46
39.000000	4.6998500e-46	5.0695750e-46
39.125000	4.6750250e-46	5.0147750e-46
39.250000	4.6657000e-46	4.9609000e-46
39.375000	4.6890750e-46	4.9072750e-46
39.500000	4.7477750e-46	4.8552500e-46
39.625000	4.8617750e-46	4.8056000e-46
39.750000	5.0636500e-46	4.7575000e-46
39.875000	5.3796500e-46	4.7103500e-46
40.000000	5.8857500e-46	4.6645750e-46
40.125000	6.6856000e-46	4.6198250e-46
40.250000	7.6995250e-46	4.5768750e-46
40.375000	9.3677000e-46	4.5344750e-46
40.500000	1.2569600e-45	4.4934750e-46
40.625000	1.9823780e-45	4.4540500e-46
40.750000	4.1507000e-45	4.4162250e-46
40.875000	1.4332500e-44	4.3793000e-46
41.000000	2.0294500e-44	4.3435500e-46
41.125000	4.9035500e-45	4.3084500e-46
41.250000	2.2051430e-45	4.2742500e-46
41.375000	1.3347550e-45	4.2416250e-46
41.500000	9.4996250e-46	4.2095750e-46
41.625000	7.5014500e-46	4.1783500e-46
41.750000	6.3012000e-46	4.1485750e-46
41.875000	5.3912500e-46	4.1200000e-46
42.000000	4.7697500e-46	4.0923250e-46
42.125000	4.3553500e-46	4.0652500e-46
42.250000	4.0509500e-46	4.0388250e-46
42.375000	3.8430750e-46	4.0137000e-46
42.500000	3.6936750e-46	3.9888500e-46
42.625000	3.5806000e-46	3.9650000e-46
42.750000	3.4953500e-46	3.9420250e-46
42.875000	3.4268750e-46	3.9190250e-46
43.000000	3.3710750e-46	3.8972500e-46
43.125000	3.3242250e-46	3.8757500e-46
43.250000	3.2829750e-46	3.8544250e-46
43.375000	3.2471000e-46	3.8335750e-46
43.500000	3.2148500e-46	3.8133500e-46
43.625000	3.1854500e-46	3.7943500e-46
43.750000	3.1570250e-46	3.7760000e-46
43.875000	3.1308500e-46	3.7577000e-46
44.000000	3.1054750e-46	3.7400500e-46
44.125000	3.0792000e-46	3.7229750e-46
44.250000	3.0530750e-46	3.7067000e-46
44.375000	3.0295000e-46	3.6903000e-46
44.500000	3.0091250e-46	3.6745250e-46
44.625000	2.9889250e-46	3.6596750e-46
44.750000	2.9690000e-46	3.6444250e-46
44.875000	2.9496750e-46	3.6294750e-46
45.000000	2.9302000e-46	3.6150000e-46
45.125000	2.9112750e-46	3.6009250e-46
45.250000	2.8931250e-46	3.5876500e-46
45.375000	2.8747000e-46	3.5743250e-46
45.500000	2.8560750e-46	3.5609750e-46
45.625000	2.8386000e-46	3.5476000e-46
45.750000	2.8206250e-46	3.5344500e-46
45.875000	2.8034250e-46	3.5209250e-46
46.000000	2.7868500e-46	3.5075250e-46
46.125000	2.7700250e-46	3.4941750e-46
46.250000	2.7535000e-46	3.4817000e-46
46.375000	2.7372000e-46	3.4690500e-46
46.500000	2.7209750e-46	3.4567750e-46
46.625000	2.7050250e-46	3.4450000e-46
46.750000	2.6895750e-46	3.4327750e-46
46.875000	2.6738750e-46	3.4204250e-46
47.000000	2.6585750e-46	3.4089000e-46
47.125000	2.6431000e-46	3.3970750e-46
47.250000	2.6274250e-46	3.3853250e-46
47.375000	2.6120750e-46	3.3739250e-46
47.500000	2.5968750e-46	3.3626000e-46
47.625000	2.5819250e-46	3.3519750e-46
47.750000	2.5665000e-46	3.3419500e-46
47.875000	2.5515500e-46	3.3295000e-46
48.000000	2.5369750e-46	3.3182000e-46
48.125000	2.5223000e-46	3.3071250e-46
48.250000	2.5080750e-46	3.2968000e-46
48.375000	2.4939770e-46	3.2857500e-46
48.500000	2.4799320e-46	3.2746500e-46
48.625000	2.4661830e-46	3.2636500e-46
48.750000	2.4518650e-46	3.2539000e-46
48.875000	2.4379420e-46	3.2425000e-46
49.000000	2.4236720e-46	3.2328000e-46
49.125000	2.4096270e-46	3.2227250e-46
49.250000	2.3954400e-46	3.2127250e-46
49.375000	2.3820500e-46	3.2021250e-46
49.500000	2.3683700e-46	3.1912750e-46
49.625000	2.3549700e-46	3.1806000e-46
49.750000	2.3422450e-46	3.1705000e-46
49.875000	2.3293420e-46	3.1603000e-46
50.000000	2.3170500e-46	3.1501250e-46
50.125000	2.3044500e-46	3.1395750e-46
50.250000	2.2919250e-46	3.1293500e-46
50.375000	2.2798570e-46	3.1190750e-46
50.500000	2.2675580e-46	3.1088250e-46
50.625000	2.2556980e-46	3.0983500e-46
50.750000	2.2437350e-46	3.0879750e-46
50.875000	2.2320020e-46	3.0776500e-46
51.000000	2.2202950e-46	3.0676000e-46
51.125000	2.2089730e-46	3.0575000e-46
51.250000	2.1972470e-46	3.0469250e-46
51.375000	2.1860000e-46	3.0369500e-46
51.500000	2.1747920e-46	3.0269500e-46
51.625000	2.1636850e-46	3.0171000e-46
51.750000	2.1526320e-46	3.0072250e-46
51.875000	2.1419530e-46	2.9970750e-46
52.000000	2.1310020e-46	2.9870250e-46
52.125000	2.1202120e-46	2.9772500e-46
52.250000	2.1097850e-46	2.9672500e-46
52.375000	2.0992500e-46	2.9573500e-46
52.500000	2.0887500e-46	2.9474500e-46
52.625000	2.0784250e-46	2.9379500e-46
52.750000	2.0680870e-46	2.9282500e-46
52.875000	2.0584070e-46	2.9187250e-46
53.000000	2.0480150e-46	2.9091500e-46
53.125000	2.0381000e-46	2.8999500e-46
53.250000	2.0279750e-46	2.8906250e-46
53.375000	2.0181800e-46	2.8811500e-46
53.500000	2.0084400e-46	2.8718250e-46
53.625000	1.9987020e-46	2.8625250e-46
53.750000	1.9888250e-46	2.8534000e-46
53.875000	1.9794230e-46	2.8438750e-46
54.000000	1.9699450e-46	2.8346250e-46
54.125000	1.9606200e-46	2.8254500e-46
54.250000	1.9511950e-46	2.8161750e-46
54.375000	1.9418350e-46	2.8070250e-46
54.500000	1.9324500e-46	2.7979250e-46
54.625000	1.9232280e-46	2.7889500e-46
54.750000	1.9140130e-46	2.7798250e-46
54.875000	1.9045980e-46	2.7709250e-46
55.000000	1.8986950e-46	2.7625250e-46
55.125000	1.8917300e-46	2.7547500e-46
55.250000	1.8841780e-46	2.7464250e-46
55.375000	1.8768080e-46	2.7381750e-46
55.500000	1.8698000e-46	2.7297750e-46
55.625000	1.8631700e-46	2.7217000e-46
55.750000	1.8573550e-46	2.7138500e-46
55.875000	1.8519780e-46	2.7061000e-46
56.000000	1.8474600e-46	2.6984500e-46
56.125000	1.8438800e-46	2.6913250e-46
56.250000	1.8416600e-46	2.6842750e-46
56.375000	1.8408480e-46	2.6770750e-46
56.500000	1.8408270e-46	2.6705500e-46
56.625000	1.8422220e-46	2.6648250e-46
56.750000	1.8466620e-46	2.6593750e-46
56.875000	1.8533050e-46	2.6550250e-46
57.000000	1.8625800e-46	2.6511750e-46
57.125000	1.8773580e-46	2.6485500e-46
57.250000	1.8973200e-46	2.6482000e-46
57.375000	1.9242370e-46	2.6491500e-46
57.500000	1.9605080e-46	2.6529750e-46
57.625000	2.0079600e-46	2.6602500e-46
57.750000	2.0692930e-46	2.6718750e-46
57.875000	2.1597800e-46	2.6889500e-46
58.000000	2.2803150e-46	2.7210250e-46
58.125000	2.4415270e-46	2.7678000e-46
58.250000	2.6585750e-46	2.8354000e-46
58.375000	2.9519000e-46	2.9257500e-46
58.500000	3.3611750e-46	3.0422250e-46
58.625000	3.9347000e-46	3.2120500e-46
58.750000	4.7409500e-46	3.4028500e-46
58.875000	5.7414000e-46	3.6116000e-46
59.000000	6.9295000e-46	3.8796250e-46
59.125000	8.6395500e-46	4.3189000e-46
59.250000	1.1253630e-45	5.0170250e-46
59.375000	1.5515900e-45	6.1943250e-46
59.500000	2.3489600e-45	8.3636750e-46
59.625000	4.0640250e-45	1.3061500e-45
59.750000	9.2592500e-45	2.5827500e-45
59.875000	3.9075750e-44	8.9198500e-45
60.000000	1.2878330e-42	3.8456500e-43
60.125000	2.9271000e-44	8.1983250e-45
60.250000	8.1912750e-45	2.4208170e-45
60.375000	3.7818000e-45	1.2309070e-45
60.500000	2.1914800e-45	8.0030750e-46
60.625000	1.4641200e-45	5.9998500e-46
60.750000	1.0615100e-45	4.8751000e-46
60.875000	8.1416500e-46	4.1799750e-46
61.000000	6.5199250e-46	3.7191000e-46
61.125000	5.3789250e-46	3.4401250e-46
61.250000	4.4010000e-46	3.2146000e-46
61.375000	3.6330750e-46	3.0176000e-46
61.500000	3.0945500e-46	2.8379000e-46
61.625000	2.6976500e-46	2.7148500e-46
61.750000	2.4112370e-46	2.6205500e-46
61.875000	2.1970300e-46	2.5432500e-46
62.000000	2.0347800e-46	2.4827150e-46
62.125000	1.9081950e-46	2.4370700e-46
62.250000	1.8100100e-46	2.4035300e-46
62.375000	1.7343600e-46	2.3778150e-46
62.500000	1.6765800e-46	2.3559620e-46
62.625000	1.6302450e-46	2.3373530e-46
62.750000	1.5922280e-46	2.3205150e-46
62.875000	1.5602580e-46	2.3069350e-46
63.000000	1.5334800e-46	2.2937400e-46
63.125000	1.5111550e-46	2.2826030e-46
63.250000	1.4924500e-46	2.2719820e-46
63.375000	1.4756920e-46	2.2626570e-46
63.500000	1.4612750e-46	2.2555150e-46
63.625000	1.4480880e-46	2.2470400e-46
63.750000	1.4367230e-46	2.2391930e-46
63.875000	1.4267430e-46	2.2317650e-46
64.000000	1.4174370e-46	2.2246630e-46
64.125000	1.4086930e-46	2.2178550e-46
64.250000	1.4008920e-46	2.2121200e-46
64.375000	1.3933330e-46	2.2079300e-46
64.500000	1.3865020e-46	2.2057900e-46
64.625000	1.3799250e-46	2.2015200e-46
64.750000	1.3708620e-46	2.1985770e-46
64.875000	1.3646500e-46	2.1938180e-46
65.000000	1.3596880e-46	2.1910280e-46
65.125000	1.3547930e-46	2.1889270e-46
65.250000	1.3499880e-46	2.1871230e-46
65.375000	1.3452650e-46	2.1849620e-46
65.500000	1.3404250e-46	2.1843220e-46
65.625000	1.3357700e-46	2.1840400e-46
65.750000	1.3309000e-46	2.1846150e-46
65.875000	1.3262050e-46	2.1854750e-46
66.000000	1.3216370e-46	2.1872700e-46
66.125000	1.3170970e-46	2.1903820e-46
66.250000	1.3125180e-46	2.1943270e-46
66.375000	1.3078230e-46	2.2000780e-46
66.500000	1.3032480e-46	2.2083550e-46
66.625000	1.2987900e-46	2.2178580e-46
66.750000	1.2943100e-46	2.2303930e-46
66.875000	1.2897900e-46	2.2460980e-46
67.000000	1.2853270e-46	2.2638830e-46
67.125000	1.2810470e-46	2.2834880e-46
67.250000	1.2766500e-46	2.3076980e-46
67.375000	1.2723300e-46	2.3373650e-46
67.500000	1.2679050e-46	2.3738050e-46
67.625000	1.2636480e-46	2.4182780e-46
67.750000	1.2593600e-46	2.4692500e-46
67.875000	1.2550520e-46	2.5248750e-46
68.000000	1.2508000e-46	2.5898250e-46
68.125000	1.2465880e-46	2.6697000e-46
68.250000	1.2423150e-46	2.7722250e-46
68.375000	1.2380800e-46	2.9062750e-46
68.500000	1.2339420e-46	3.0714500e-46
68.625000	1.2297600e-46	3.2667500e-46
68.750000	1.2258300e-46	3.4876250e-46
68.875000	1.2217800e-46	3.7203500e-46
69.000000	1.2176770e-46	3.9587000e-46
69.125000	1.2136720e-46	4.1820000e-46
69.250000	1.2095500e-46	4.4030250e-46
69.375000	1.2055850e-46	4.5718500e-46
69.500000	1.2017250e-46	4.7011250e-46
69.625000	1.1977730e-46	4.7805000e-46
69.750000	1.1939180e-46	4.8462750e-46
69.875000	1.1901470e-46	4.8880250e-46
70.000000	1.1863320e-46	4.9279250e-46
70.125000	1.1825900e-46	4.9382250e-46
70.250000	1.1788080e-46	4.9338500e-46
70.375000	1.1751150e-46	4.9110500e-46
70.500000	1.1713150e-46	4.8490250e-46
70.625000	1.1677450e-46	4.7777750e-46
70.750000	1.1639650e-46	4.6931750e-46
70.875000	1.1604530e-46	4.5645500e-46
71.000000	1.1568600e-46	4.4389500e-46
71.125000	1.1533850e-46	4.2969250e-46
71.250000	1.1498800e-46	4.1294000e-46
71.375000	1.1463500e-46	3.9625000e-46
71.500000	1.1428500e-46	3.7864250e-46
71.625000	1.1393850e-46	3.5644750e-46
71.750000	1.1359100e-46	3.3018250e-46
71.875000	1.1324650e-46	3.0762250e-46
72.000000	1.1291470e-46	2.8772250e-46
72.125000	1.1263130e-46	2.7044000e-46
72.250000	1.1239450e-46	2.5579750e-46
72.375000	1.1213030e-46	2.4401830e-46
72.500000	1.1184600e-46	2.3463380e-46
72.625000	1.1155520e-46	2.2729520e-46
72.750000	1.1126530e-46	2.2156070e-46
72.875000	1.1098470e-46	2.1635030e-46
73.000000	1.1071120e-46	2.1188730e-46
73.125000	1.1046120e-46	2.0781500e-46
73.250000	1.1020020e-46	2.0416000e-46
73.375000	1.0995270e-46	2.0096750e-46
73.500000	1.0972830e-46	1.9831250e-46
73.625000	1.0951380e-46	1.9578680e-46
73.750000	1.0932450e-46	1.9353430e-46
73.875000	1.0915070e-46	1.9144180e-46
74.000000	1.0900100e-46	1.8947720e-46
74.125000	1.0887570e-46	1.8772600e-46
74.250000	1.0877980e-46	1.8611580e-46
74.375000	1.0871700e-46	1.8466480e-46
74.500000	1.0868200e-46	1.8331300e-46
74.625000	1.0867850e-46	1.8200320e-46
74.750000	1.0877150e-46	1.8060150e-46
74.875000	1.0890300e-46	1.7955980e-46
75.000000	1.0911470e-46	1.7854350e-46
75.125000	1.0942100e-46	1.7759550e-46
75.250000	1.0980530e-46	1.7671580e-46
75.375000	1.1034300e-46	1.7590250e-46
75.500000	1.1104020e-46	1.7509450e-46
75.625000	1.1193020e-46	1.7422130e-46
75.750000	1.1302300e-46	1.7339850e-46
75.875000	1.1440500e-46	1.7276900e-46
76.000000	1.1604830e-46	1.7218000e-46
76.125000	1.1797620e-46	1.7164520e-46
76.250000	1.2036720e-46	1.7082180e-46
76.375000	1.2326430e-46	1.7029200e-46
76.500000	1.2681350e-46	1.6974400e-46
76.625000	1.3135500e-46	1.6924350e-46
76.750000	1.3698620e-46	1.6875780e-46
76.875000	1.4446480e-46	1.6833520e-46
77.000000	1.5386330e-46	1.6790100e-46
77.125000	1.6429830e-46	1.6748200e-46
77.250000	1.7550600e-46	1.6706580e-46
77.375000	1.8836180e-46	1.6666230e-46
77.500000	2.0477300e-46	1.6625200e-46
77.625000	2.2559300e-46	1.6583750e-46
77.750000	2.5287500e-46	1.6543550e-46
77.875000	2.8908000e-46	1.6503370e-46
78.000000	3.3441000e-46	1.6463020e-46
78.125000	3.9419000e-46	1.6423150e-46
78.250000	4.6968500e-46	1.6383750e-46
78.375000	5.6589750e-46	1.6344200e-46
78.500000	6.7080250e-46	1.6305400e-46
78.625000	7.5026750e-46	1.6265950e-46
78.750000	7.6511500e-46	1.6227370e-46
78.875000	6.6463750e-46	1.6187850e-46
79.000000	5.4798750e-46	1.6149470e-46
79.125000	4.5391000e-46	1.6111830e-46
79.250000	3.7706000e-46	1.6073450e-46
79.375000	3.1846750e-46	1.6035630e-46
79.500000	2.7437250e-46	1.5998450e-46
79.625000	2.3946950e-46	1.5960700e-46
79.750000	2.1339680e-46	1.5923150e-46
79.875000	1.9315680e-46	1.5885970e-46
80.000000	1.7756950e-46	1.5850380e-46
80.125000	1.6499500e-46	1.5814420e-46
80.250000	1.5358130e-46	1.5779350e-46
80.375000	1.4321720e-46	1.5743000e-46
80.500000	1.3428800e-46	1.5706850e-46
80.625000	1.2715100e-46	1.5671100e-46
80.750000	1.2152550e-46	1.5635500e-46
80.875000	1.1691400e-46	1.5599350e-46
81.000000	1.1312780e-46	1.5561800e-46
81.125000	1.0998630e-46	1.5526200e-46
81.250000	1.0732350e-46	1.5490680e-46
81.375000	1.0502180e-46	1.5455620e-46
81.500000	1.0300720e-46	1.5419430e-46
81.625000	1.0126620e-46	1.5383980e-46
81.750000	9.9751250e-47	1.5348150e-46
81.875000	9.8473500e-47	1.5312400e-46
82.000000	9.7349750e-47	1.5277530e-46
82.125000	9.6355500e-47	1.5243950e-46
82.250000	9.5482000e-47	1.5209700e-46
82.375000	9.4744250e-47	1.5175730e-46
82.500000	9.4108500e-47	1.5141700e-46
82.625000	9.3537750e-47	1.5106650e-46
82.750000	9.3024750e-47	1.5072480e-46
82.875000	9.2557750e-47	1.5038470e-46
83.000000	9.2123250e-47	1.5004280e-46
83.125000	9.1717750e-47	1.4969900e-46
83.250000	9.1354000e-47	1.4934920e-46
83.375000	9.1023500e-47	1.4901500e-46
83.500000	9.0710500e-47	1.4867220e-46
83.625000	9.0413500e-47	1.4833170e-46
83.750000	9.0139750e-47	1.4800230e-46
83.875000	8.9874250e-47	1.4763850e-46
84.000000	8.9622000e-47	1.4730900e-46
84.125000	8.9387000e-47	1.4697270e-46
84.250000	8.9156750e-47	1.4663150e-46
84.375000	8.8931750e-47	1.4630000e-46
84.500000	8.8721000e-47	1.4597100e-46
84.625000	8.8513000e-47	1.4564200e-46
84.750000	8.8297000e-47	1.4530720e-46
84.875000	8.8052250e-47	1.4498670e-46
85.000000	8.7762500e-47	1.4466900e-46
85.125000	8.7548500e-47	1.4434630e-46
85.250000	8.7379000e-47	1.4402850e-46
85.375000	8.7219500e-47	1.4371050e-46
